Time,Temperature,Voltage_terminal,SOC,V1,Charge_Current,Capacity,R0,R1,C1
0,25.000000,3.689455,50.290437,-0.000084,-4.076110,4.076110,0.00005884,0.01145801,4846.080679
1,25.000005,3.690670,50.318215,-0.000916,-4.076110,4.076110,0.00005884,0.01145801,4846.080679
2,25.000010,3.691655,50.345993,-0.001733,-4.076110,4.076110,0.00005884,0.01145801,4846.080679
3,25.000015,3.692625,50.373771,-0.002536,-4.076110,4.076110,0.00005884,0.01145801,4846.080679
4,25.000020,3.693618,50.401548,-0.003324,-4.076110,4.076110,0.00005884,0.01145801,4846.080679
5,25.000024,3.694642,50.429326,-0.004098,-4.076110,4.076110,0.00005884,0.01145801,4846.080679
6,25.000029,3.695653,50.457104,-0.004859,-4.076110,4.076110,0.00005884,0.01145801,4846.080679
7,25.000034,3.696649,50.484882,-0.005606,-4.076110,4.076110,0.00005884,0.01145801,4846.080679
8,25.000039,3.697565,50.512659,-0.006339,-4.076110,4.076110,0.00005884,0.01145801,4846.080679
9,25.000044,3.698453,50.540437,-0.007060,-4.076110,4.076110,0.00005884,0.01145801,4846.080679
10,25.000049,3.699328,50.568215,-0.007767,-4.076110,4.076110,0.00005884,0.01145801,4846.080679
11,25.000053,3.700191,50.595993,-0.008462,-4.076110,4.076110,0.00005884,0.01145802,4846.080679
12,25.000058,3.701041,50.623771,-0.009145,-4.076110,4.076110,0.00005884,0.01145802,4846.080679
13,25.000063,3.701879,50.651548,-0.009815,-4.076110,4.076110,0.00005884,0.01145802,4846.080679
14,25.000068,3.702704,50.679326,-0.010474,-4.076110,4.076110,0.00005884,0.01145802,4846.080679
15,25.000073,3.703518,50.707104,-0.011120,-4.076110,4.076110,0.00005884,0.01145802,4846.080679
16,25.000077,3.704321,50.734882,-0.011755,-4.076110,4.076110,0.00005884,0.01145802,4846.080679
17,25.000082,3.705112,50.762659,-0.012379,-4.076110,4.076110,0.00005884,0.01145802,4846.080679
18,25.000087,3.705892,50.790437,-0.012992,-4.076110,4.076110,0.00005884,0.01145802,4846.080679
19,25.000092,3.706810,50.818215,-0.013593,-4.076110,4.076110,0.00005884,0.01145802,4846.080679
20,25.000096,3.707735,50.845993,-0.014184,-4.076110,4.076110,0.00005884,0.01145802,4846.080679
21,25.000101,3.708651,50.873771,-0.014765,-4.076110,4.076110,0.00005884,0.01145802,4846.080679
22,25.000106,3.709495,50.901548,-0.015335,-4.076110,4.076110,0.00005884,0.01145802,4846.080679
23,25.000110,3.710140,50.929326,-0.015895,-4.076110,4.076110,0.00005884,0.01145802,4846.080679
24,25.000115,3.710775,50.957104,-0.016445,-4.076110,4.076110,0.00005884,0.01145802,4846.080679
25,25.000120,3.711400,50.984882,-0.016985,-4.076110,4.076110,0.00005884,0.01145802,4846.080679
26,25.000125,3.712114,51.012659,-0.017515,-4.076110,4.076110,0.00005884,0.01145802,4846.080679
27,25.000129,3.712885,51.040437,-0.018036,-4.076110,4.076110,0.00005884,0.01145802,4846.080679
28,25.000134,3.713647,51.068215,-0.018548,-4.076110,4.076110,0.00005884,0.01145802,4846.080679
29,25.000139,3.714399,51.095993,-0.019050,-4.076110,4.076110,0.00005884,0.01145802,4846.080679
30,25.000143,3.714985,51.123771,-0.019544,-4.076110,4.076110,0.00005884,0.01145802,4846.080679
31,25.000148,3.715555,51.151548,-0.020029,-4.076110,4.076110,0.00005884,0.01145802,4846.080679
32,25.000152,3.716116,51.179326,-0.020505,-4.076110,4.076110,0.00005884,0.01145802,4846.080679
33,25.000157,3.716721,51.207104,-0.020972,-4.076110,4.076110,0.00005884,0.01145802,4846.080679
34,25.000162,3.717433,51.234882,-0.021432,-4.076110,4.076110,0.00005884,0.01145802,4846.080679
35,25.000166,3.718136,51.262659,-0.021883,-4.076110,4.076110,0.00005884,0.01145802,4846.080679
36,25.000171,3.718832,51.290437,-0.022326,-4.076110,4.076110,0.00005884,0.01145802,4846.080679
37,25.000176,3.719518,51.318215,-0.022761,-4.076110,4.076110,0.00005884,0.01145802,4846.080679
38,25.000180,3.720195,51.345993,-0.023188,-4.076110,4.076110,0.00005884,0.01145802,4846.080679
39,25.000185,3.720864,51.373771,-0.023608,-4.076110,4.076110,0.00005884,0.01145802,4846.080679
40,25.000189,3.721527,51.401548,-0.024020,-4.076110,4.076110,0.00005884,0.01145802,4846.080679
41,25.000194,3.722184,51.429326,-0.024425,-4.076110,4.076110,0.00005884,0.01145802,4846.080679
42,25.000198,3.722835,51.457104,-0.024823,-4.076110,4.076110,0.00005884,0.01145802,4846.080679
43,25.000203,3.723479,51.484882,-0.025213,-4.076110,4.076110,0.00005884,0.01145802,4846.080679
44,25.000208,3.724082,51.512659,-0.025597,-4.076110,4.076110,0.00005884,0.01145802,4846.080679
45,25.000212,3.724626,51.540437,-0.025974,-4.076110,4.076110,0.00005884,0.01145802,4846.080679
46,25.000217,3.725164,51.568215,-0.026344,-4.076110,4.076110,0.00005884,0.01145802,4846.080679
47,25.000221,3.725695,51.595993,-0.026707,-4.076110,4.076110,0.00005884,0.01145802,4846.080679
48,25.000226,3.726280,51.623771,-0.027064,-4.076110,4.076110,0.00005884,0.01145802,4846.080679
49,25.000230,3.726881,51.651548,-0.027414,-4.076110,4.076110,0.00005884,0.01145802,4846.080679
50,25.000235,3.727475,51.679326,-0.027759,-4.076110,4.076110,0.00005884,0.01145802,4846.080679
51,25.000239,3.728054,51.707104,-0.028097,-4.076110,4.076110,0.00005884,0.01145802,4846.080679
52,25.000244,3.728554,51.734882,-0.028429,-4.076110,4.076110,0.00005884,0.01145802,4846.080679
53,25.000248,3.729047,51.762659,-0.028755,-4.076110,4.076110,0.00005884,0.01145802,4846.080679
54,25.000253,3.729535,51.790437,-0.029075,-4.076110,4.076110,0.00005884,0.01145802,4846.080679
55,25.000257,3.730056,51.818215,-0.029390,-4.076110,4.076110,0.00005884,0.01145802,4846.080679
56,25.000262,3.730618,51.845993,-0.029699,-4.076110,4.076110,0.00005884,0.01145802,4846.080679
57,25.000266,3.731174,51.873771,-0.030003,-4.076110,4.076110,0.00005884,0.01145802,4846.080679
58,25.000271,3.731725,51.901548,-0.030301,-4.076110,4.076110,0.00005884,0.01145802,4846.080679
59,25.000275,3.732268,51.929326,-0.030594,-4.076110,4.076110,0.00005884,0.01145802,4846.080679
60,25.000279,3.732805,51.957104,-0.030881,-4.076110,4.076110,0.00005884,0.01145802,4846.080679
61,25.000284,3.733337,51.984882,-0.031163,-4.076110,4.076110,0.00005884,0.01145802,4846.080679
62,25.000288,3.733865,52.012659,-0.031441,-4.076110,4.076110,0.00005884,0.01145802,4846.080679
63,25.000293,3.734390,52.040437,-0.031713,-4.076110,4.076110,0.00005884,0.01145802,4846.080679
64,25.000297,3.734910,52.068215,-0.031981,-4.076110,4.076110,0.00005884,0.01145802,4846.080679
65,25.000301,3.735425,52.095993,-0.032244,-4.076110,4.076110,0.00005884,0.01145802,4846.080679
66,25.000306,3.735934,52.123771,-0.032502,-4.076110,4.076110,0.00005884,0.01145802,4846.080679
67,25.000310,3.736438,52.151548,-0.032755,-4.076110,4.076110,0.00005884,0.01145802,4846.080679
68,25.000315,3.736936,52.179326,-0.033004,-4.076110,4.076110,0.00005884,0.01145802,4846.080679
69,25.000319,3.737431,52.207104,-0.033249,-4.076110,4.076110,0.00005884,0.01145802,4846.080679
70,25.000323,3.737923,52.234882,-0.033489,-4.076110,4.076110,0.00005884,0.01145802,4846.080679
71,25.000328,3.738411,52.262659,-0.033725,-4.076110,4.076110,0.00005884,0.01145802,4846.080679
72,25.000332,3.738896,52.290437,-0.033956,-4.076110,4.076110,0.00005884,0.01145802,4846.080679
73,25.000336,3.739355,52.318215,-0.034184,-4.076110,4.076110,0.00005884,0.01145802,4846.080679
74,25.000341,3.739746,52.345993,-0.034407,-4.076110,4.076110,0.00005884,0.01145802,4846.080679
75,25.000345,3.740133,52.373771,-0.034627,-4.076110,4.076110,0.00005884,0.01145803,4846.080679
76,25.000349,3.740516,52.401548,-0.034842,-4.076110,4.076110,0.00005884,0.01145803,4846.080679
77,25.000354,3.740946,52.429326,-0.035054,-4.076110,4.076110,0.00005884,0.01145803,4846.080679
78,25.000358,3.741406,52.457104,-0.035262,-4.076110,4.076110,0.00005884,0.01145803,4846.080679
79,25.000362,3.741863,52.484882,-0.035466,-4.076110,4.076110,0.00005884,0.01145803,4846.080679
80,25.000366,3.742316,52.512659,-0.035667,-4.076110,4.076110,0.00005884,0.01145803,4846.080679
81,25.000371,3.742763,52.540437,-0.035864,-4.076110,4.076110,0.00005884,0.01145803,4846.080679
82,25.000375,3.743206,52.568215,-0.036057,-4.076110,4.076110,0.00005884,0.01145803,4846.080679
83,25.000379,3.743646,52.595993,-0.036247,-4.076110,4.076110,0.00005884,0.01145803,4846.080679
84,25.000384,3.744057,52.623771,-0.036434,-4.076110,4.076110,0.00005884,0.01145803,4846.080679
85,25.000388,3.744407,52.651548,-0.036617,-4.076110,4.076110,0.00005884,0.01145803,4846.080679
86,25.000392,3.744755,52.679326,-0.036797,-4.076110,4.076110,0.00005884,0.01145803,4846.080679
87,25.000396,3.745099,52.707104,-0.036974,-4.076110,4.076110,0.00005884,0.01145803,4846.080679
88,25.000400,3.745497,52.734882,-0.037148,-4.076110,4.076110,0.00005884,0.01145803,4846.080679
89,25.000405,3.745921,52.762659,-0.037318,-4.076110,4.076110,0.00005884,0.01145803,4846.080679
90,25.000409,3.746341,52.790437,-0.037486,-4.076110,4.076110,0.00005884,0.01145803,4846.080679
91,25.000413,3.746758,52.818215,-0.037650,-4.076110,4.076110,0.00005884,0.01145803,4846.080679
92,25.000417,3.747169,52.845993,-0.037812,-4.076110,4.076110,0.00005884,0.01145803,4846.080679
93,25.000421,3.747577,52.873771,-0.037971,-4.076110,4.076110,0.00005884,0.01145803,4846.080679
94,25.000426,3.747983,52.901548,-0.038127,-4.076110,4.076110,0.00005884,0.01145803,4846.080679
95,25.000430,3.748354,52.929326,-0.038280,-4.076110,4.076110,0.00005884,0.01145803,4846.080679
96,25.000434,3.748672,52.957104,-0.038430,-4.076110,4.076110,0.00005884,0.01145803,4846.080679
97,25.000438,3.748987,52.984882,-0.038578,-4.076110,4.076110,0.00005884,0.01145803,4846.080679
98,25.000442,3.749300,53.012659,-0.038723,-4.076110,4.076110,0.00005884,0.01145803,4846.080679
99,25.000447,3.749673,53.040437,-0.038865,-4.076110,4.076110,0.00005884,0.01145803,4846.080679
100,25.000451,3.750065,53.068215,-0.039005,-4.076110,4.076110,0.00005884,0.01145803,4846.080679
101,25.000455,3.750455,53.095993,-0.039143,-4.076110,4.076110,0.00005884,0.01145803,4846.080679
102,25.000459,3.750834,53.123771,-0.039278,-4.076110,4.076110,0.00005884,0.01145803,4846.080679
103,25.000463,3.751134,53.151548,-0.039410,-4.076110,4.076110,0.00005884,0.01145803,4846.080679
104,25.000467,3.751432,53.179326,-0.039540,-4.076110,4.076110,0.00005884,0.01145803,4846.080679
105,25.000471,3.751727,53.207104,-0.039668,-4.076110,4.076110,0.00005884,0.01145803,4846.080679
106,25.000475,3.752059,53.234882,-0.039794,-4.076110,4.076110,0.00005884,0.01145803,4846.080679
107,25.000479,3.752435,53.262659,-0.039917,-4.076110,4.076110,0.00005884,0.01145803,4846.080679
108,25.000484,3.752808,53.290437,-0.040038,-4.076110,4.076110,0.00005884,0.01145803,4846.080679
109,25.000488,3.753180,53.318215,-0.040157,-4.076110,4.076110,0.00005884,0.01145803,4846.080679
110,25.000492,3.753547,53.345993,-0.040274,-4.076110,4.076110,0.00005884,0.01145803,4846.080679
111,25.000496,3.753912,53.373771,-0.040389,-4.076110,4.076110,0.00005884,0.01145803,4846.080679
112,25.000500,3.754274,53.401548,-0.040501,-4.076110,4.076110,0.00005884,0.01145803,4846.080679
113,25.000504,3.754635,53.429326,-0.040612,-4.076110,4.076110,0.00005884,0.01145803,4846.080679
114,25.000508,3.754996,53.457104,-0.040721,-4.076110,4.076110,0.00005884,0.01145803,4846.080679
115,25.000512,3.755356,53.484882,-0.040828,-4.076110,4.076110,0.00005884,0.01145803,4846.080679
116,25.000516,3.755713,53.512659,-0.040933,-4.076110,4.076110,0.00005884,0.01145803,4846.080679
117,25.000520,3.756067,53.540437,-0.041036,-4.076110,4.076110,0.00005884,0.01145803,4846.080679
118,25.000524,3.756418,53.568215,-0.041137,-4.076110,4.076110,0.00005884,0.01145803,4846.080679
119,25.000528,3.756767,53.595993,-0.041236,-4.076110,4.076110,0.00005884,0.01145803,4846.080679
120,25.000532,3.757115,53.623771,-0.041334,-4.076110,4.076110,0.00005884,0.01145803,4846.080679
121,25.000536,3.757463,53.651548,-0.041430,-4.076110,4.076110,0.00005884,0.01145803,4846.080679
122,25.000540,3.757809,53.679326,-0.041524,-4.076110,4.076110,0.00005884,0.01145803,4846.080679
123,25.000544,3.758154,53.707104,-0.041616,-4.076110,4.076110,0.00005884,0.01145803,4846.080679
124,25.000548,3.758477,53.734882,-0.041707,-4.076110,4.076110,0.00005884,0.01145803,4846.080679
125,25.000552,3.758734,53.762659,-0.041796,-4.076110,4.076110,0.00005884,0.01145803,4846.080679
126,25.000556,3.758989,53.790437,-0.041884,-4.076110,4.076110,0.00005884,0.01145803,4846.080679
127,25.000560,3.759242,53.818215,-0.041970,-4.076110,4.076110,0.00005884,0.01145803,4846.080679
128,25.000564,3.759594,53.845993,-0.042054,-4.076110,4.076110,0.00005884,0.01145803,4846.080679
129,25.000568,3.760012,53.873771,-0.042137,-4.076110,4.076110,0.00005884,0.01145803,4846.080679
130,25.000572,3.760429,53.901548,-0.042219,-4.076110,4.076110,0.00005884,0.01145803,4846.080679
131,25.000576,3.760843,53.929326,-0.042299,-4.076110,4.076110,0.00005884,0.01145803,4846.080679
132,25.000580,3.761176,53.957104,-0.042378,-4.076110,4.076110,0.00005884,0.01145803,4846.080679
133,25.000584,3.761503,53.984882,-0.042455,-4.076110,4.076110,0.00005884,0.01145803,4846.080679
134,25.000588,3.761828,54.012659,-0.042531,-4.076110,4.076110,0.00005884,0.01145803,4846.080679
135,25.000591,3.762179,54.040437,-0.042605,-4.076110,4.076110,0.00005884,0.01145803,4846.080679
136,25.000595,3.762587,54.068215,-0.042678,-4.076110,4.076110,0.00005884,0.01145803,4846.080679
137,25.000599,3.762994,54.095993,-0.042750,-4.076110,4.076110,0.00005884,0.01145803,4846.080679
138,25.000603,3.763399,54.123771,-0.042821,-4.076110,4.076110,0.00005884,0.01145803,4846.080679
139,25.000607,3.763694,54.151548,-0.042890,-4.076110,4.076110,0.00005884,0.01145803,4846.080679
140,25.000611,3.763932,54.179326,-0.042958,-4.076110,4.076110,0.00005884,0.01145803,4846.080679
141,25.000615,3.764169,54.207104,-0.043025,-4.076110,4.076110,0.00005884,0.01145803,4846.080679
142,25.000619,3.764409,54.234882,-0.043091,-4.076110,4.076110,0.00005884,0.01145803,4846.080679
143,25.000622,3.764808,54.262659,-0.043155,-4.076110,4.076110,0.00005884,0.01145803,4846.080679
144,25.000626,3.765206,54.290437,-0.043218,-4.076110,4.076110,0.00005884,0.01145803,4846.080679
145,25.000630,3.765603,54.318215,-0.043281,-4.076110,4.076110,0.00005884,0.01145803,4846.080679
146,25.000634,3.765936,54.345993,-0.043342,-4.076110,4.076110,0.00005884,0.01145804,4846.080679
147,25.000638,3.766163,54.373771,-0.043402,-4.076110,4.076110,0.00005884,0.01145804,4846.080679
148,25.000642,3.766389,54.401548,-0.043461,-4.076110,4.076110,0.00005884,0.01145804,4846.080679
149,25.000645,3.766615,54.429326,-0.043519,-4.076110,4.076110,0.00005884,0.01145804,4846.080679
150,25.000649,3.766839,54.457104,-0.043575,-4.076110,4.076110,0.00005884,0.01145804,4846.080679
151,25.000653,3.767062,54.484882,-0.043631,-4.076110,4.076110,0.00005884,0.01145804,4846.080679
152,25.000657,3.767285,54.512659,-0.043686,-4.076110,4.076110,0.00005884,0.01145804,4846.080679
153,25.000661,3.767522,54.540437,-0.043740,-4.076110,4.076110,0.00005884,0.01145804,4846.080679
154,25.000664,3.767910,54.568215,-0.043793,-4.076110,4.076110,0.00005884,0.01145804,4846.080679
155,25.000668,3.768296,54.595993,-0.043845,-4.076110,4.076110,0.00005884,0.01145804,4846.080679
156,25.000672,3.768682,54.623771,-0.043896,-4.076110,4.076110,0.00005884,0.01145804,4846.080679
157,25.000676,3.769029,54.651548,-0.043946,-4.076110,4.076110,0.00005884,0.01145804,4846.080679
158,25.000680,3.769328,54.679326,-0.043995,-4.076110,4.076110,0.00005884,0.01145804,4846.080679
159,25.000683,3.769626,54.707104,-0.044044,-4.076110,4.076110,0.00005884,0.01145804,4846.080679
160,25.000687,3.769923,54.734882,-0.044091,-4.076110,4.076110,0.00005884,0.01145804,4846.080679
161,25.000691,3.770222,54.762659,-0.044138,-4.076110,4.076110,0.00005884,0.01145804,4846.080679
162,25.000695,3.770520,54.790437,-0.044184,-4.076110,4.076110,0.00005884,0.01145804,4846.080679
163,25.000698,3.770818,54.818215,-0.044229,-4.076110,4.076110,0.00005884,0.01145804,4846.080679
164,25.000702,3.771114,54.845993,-0.044273,-4.076110,4.076110,0.00005884,0.01145804,4846.080679
165,25.000706,3.771408,54.873771,-0.044316,-4.076110,4.076110,0.00005884,0.01145804,4846.080679
166,25.000709,3.771701,54.901548,-0.044359,-4.076110,4.076110,0.00005884,0.01145804,4846.080679
167,25.000713,3.771993,54.929326,-0.044401,-4.076110,4.076110,0.00005884,0.01145804,4846.080679
168,25.000717,3.772286,54.957104,-0.044442,-4.076110,4.076110,0.00005884,0.01145804,4846.080679
169,25.000721,3.772579,54.984882,-0.044482,-4.076110,4.076110,0.00005884,0.01145804,4846.080679
170,25.000724,3.772871,55.012659,-0.044522,-4.076110,4.076110,0.00005884,0.01145804,4846.080679
171,25.000728,3.773162,55.040437,-0.044561,-4.076110,4.076110,0.00005884,0.01145804,4846.080679
172,25.000732,3.773377,55.068215,-0.044599,-4.076110,4.076110,0.00005884,0.01145804,4846.080679
173,25.000735,3.773582,55.095993,-0.044637,-4.076110,4.076110,0.00005884,0.01145804,4846.080679
174,25.000739,3.773787,55.123771,-0.044673,-4.076110,4.076110,0.00005884,0.01145804,4846.080679
175,25.000743,3.774031,55.151548,-0.044710,-4.076110,4.076110,0.00005884,0.01145804,4846.080679
176,25.000746,3.774402,55.179326,-0.044745,-4.076110,4.076110,0.00005884,0.01145804,4846.080679
177,25.000750,3.774772,55.207104,-0.044780,-4.076110,4.076110,0.00005884,0.01145804,4846.080679
178,25.000753,3.775141,55.234882,-0.044815,-4.076110,4.076110,0.00005884,0.01145804,4846.080679
179,25.000757,3.775510,55.262659,-0.044848,-4.076110,4.076110,0.00005884,0.01145804,4846.080679
180,25.000761,3.775878,55.290437,-0.044881,-4.076110,4.076110,0.00005884,0.01145804,4846.080679
181,25.000764,3.776245,55.318215,-0.044914,-4.076110,4.076110,0.00005884,0.01145804,4846.080679
182,25.000768,3.776612,55.345993,-0.044946,-4.076110,4.076110,0.00005884,0.01145804,4846.080679
183,25.000772,3.776899,55.373771,-0.044977,-4.076110,4.076110,0.00005884,0.01145804,4846.080679
184,25.000775,3.777182,55.401548,-0.045008,-4.076110,4.076110,0.00005884,0.01145804,4846.080679
185,25.000779,3.777465,55.429326,-0.045038,-4.076110,4.076110,0.00005884,0.01145804,4846.080679
186,25.000782,3.777773,55.457104,-0.045068,-4.076110,4.076110,0.00005884,0.01145804,4846.080679
187,25.000786,3.778138,55.484882,-0.045097,-4.076110,4.076110,0.00005884,0.01145804,4846.080679
188,25.000790,3.778501,55.512659,-0.045126,-4.076110,4.076110,0.00005884,0.01145804,4846.080679
189,25.000793,3.778864,55.540437,-0.045154,-4.076110,4.076110,0.00005884,0.01145804,4846.080679
190,25.000797,3.779227,55.568215,-0.045182,-4.076110,4.076110,0.00005884,0.01145804,4846.080679
191,25.000800,3.779589,55.595993,-0.045209,-4.076110,4.076110,0.00005884,0.01145804,4846.080679
192,25.000804,3.779950,55.623771,-0.045236,-4.076110,4.076110,0.00005884,0.01145804,4846.080679
193,25.000807,3.780309,55.651548,-0.045262,-4.076110,4.076110,0.00005884,0.01145804,4846.080679
194,25.000811,3.780584,55.679326,-0.045288,-4.076110,4.076110,0.00005884,0.01145804,4846.080679
195,25.000814,3.780860,55.707104,-0.045313,-4.076110,4.076110,0.00005884,0.01145804,4846.080679
196,25.000818,3.781134,55.734882,-0.045338,-4.076110,4.076110,0.00005884,0.01145804,4846.080679
197,25.000821,3.781409,55.762659,-0.045362,-4.076110,4.076110,0.00005884,0.01145804,4846.080679
198,25.000825,3.781686,55.790437,-0.045386,-4.076110,4.076110,0.00005884,0.01145804,4846.080679
199,25.000829,3.781962,55.818215,-0.045410,-4.076110,4.076110,0.00005884,0.01145804,4846.080679
200,25.000832,3.782238,55.845993,-0.045433,-4.076110,4.076110,0.00005884,0.01145804,4846.080679
201,25.000836,3.782511,55.873771,-0.045455,-4.076110,4.076110,0.00005884,0.01145804,4846.080679
202,25.000839,3.782783,55.901548,-0.045478,-4.076110,4.076110,0.00005884,0.01145804,4846.080679
203,25.000843,3.783054,55.929326,-0.045500,-4.076110,4.076110,0.00005884,0.01145804,4846.080679
204,25.000846,3.783326,55.957104,-0.045521,-4.076110,4.076110,0.00005884,0.01145804,4846.080679
205,25.000849,3.783600,55.984882,-0.045542,-4.076110,4.076110,0.00005884,0.01145804,4846.080679
206,25.000853,3.783873,56.012659,-0.045563,-4.076110,4.076110,0.00005884,0.01145804,4846.080679
207,25.000856,3.784146,56.040437,-0.045583,-4.076110,4.076110,0.00005884,0.01145804,4846.080679
