Time,Temperature,Voltage_terminal,SOC,V1,Charge_Current,Capacity,R0,R1,C1
0,25.000000,3.960472,80.445792,-0.000084,-3.994844,4.076110,0.00005884,0.01145801,4846.080679
1,25.000005,3.961826,80.473016,-0.000899,-3.985487,4.076110,0.00005884,0.01145801,4846.080679
2,25.000009,3.962952,80.500176,-0.001698,-3.980578,4.076110,0.00005884,0.01145801,4846.080679
3,25.000014,3.964063,80.527303,-0.002482,-3.975669,4.076110,0.00005884,0.01145801,4846.080679
4,25.000019,3.965096,80.554396,-0.003251,-3.970767,4.076110,0.00005884,0.01145801,4846.080679
5,25.000023,3.966013,80.581456,-0.004005,-3.965871,4.076110,0.00005884,0.01145801,4846.080679
6,25.000028,3.966915,80.608483,-0.004744,-3.960981,4.076110,0.00005884,0.01145801,4846.080679
7,25.000032,3.967803,80.635476,-0.005470,-3.956097,4.076110,0.00005884,0.01145801,4846.080679
8,25.000037,3.968727,80.662436,-0.006181,-3.951219,4.076110,0.00005884,0.01145801,4846.080679
9,25.000042,3.969667,80.689362,-0.006879,-3.946347,4.076110,0.00005884,0.01145801,4846.080679
10,25.000046,3.970593,80.716256,-0.007563,-3.941481,4.076110,0.00005884,0.01145801,4846.080679
11,25.000051,3.971505,80.743116,-0.008234,-3.936621,4.076110,0.00005884,0.01145801,4846.080679
12,25.000055,3.972406,80.769943,-0.008892,-3.931767,4.076110,0.00005884,0.01145802,4846.080679
13,25.000059,3.973295,80.796737,-0.009538,-3.926919,4.076110,0.00005884,0.01145802,4846.080679
14,25.000064,3.974171,80.823498,-0.010171,-3.922077,4.076110,0.00005884,0.01145802,4846.080679
15,25.000068,3.975034,80.850227,-0.010791,-3.917241,4.076110,0.00005884,0.01145802,4846.080679
16,25.000073,3.975882,80.876922,-0.011400,-3.912411,4.076110,0.00005884,0.01145802,4846.080679
17,25.000077,3.976718,80.903584,-0.011996,-3.907587,4.076110,0.00005884,0.01145802,4846.080679
18,25.000081,3.977542,80.930213,-0.012581,-3.902768,4.076110,0.00005884,0.01145802,4846.080679
19,25.000086,3.978356,80.956810,-0.013155,-3.897956,4.076110,0.00005884,0.01145802,4846.080679
20,25.000090,3.979159,80.983373,-0.013717,-3.893150,4.076110,0.00005884,0.01145802,4846.080679
21,25.000094,3.979951,81.009904,-0.014269,-3.888349,4.076110,0.00005884,0.01145802,4846.080679
22,25.000099,3.980732,81.036403,-0.014809,-3.883554,4.076110,0.00005884,0.01145802,4846.080679
23,25.000103,3.981464,81.062868,-0.015339,-3.878766,4.076110,0.00005884,0.01145802,4846.080679
24,25.000107,3.982142,81.089301,-0.015858,-3.873983,4.076110,0.00005884,0.01145802,4846.080679
25,25.000112,3.982810,81.115701,-0.016368,-3.869206,4.076110,0.00005884,0.01145802,4846.080679
26,25.000116,3.983468,81.142069,-0.016867,-3.864435,4.076110,0.00005884,0.01145802,4846.080679
27,25.000120,3.984116,81.168404,-0.017356,-3.859670,4.076110,0.00005884,0.01145802,4846.080679
28,25.000124,3.984754,81.194707,-0.017836,-3.854912,4.076110,0.00005884,0.01145802,4846.080679
29,25.000128,3.985382,81.220978,-0.018306,-3.850159,4.076110,0.00005884,0.01145802,4846.080679
30,25.000132,3.986000,81.247216,-0.018766,-3.845413,4.076110,0.00005884,0.01145802,4846.080679
31,25.000137,3.986799,81.273421,-0.019218,-3.840673,4.076110,0.00005884,0.01145802,4846.080679
32,25.000141,3.987637,81.299595,-0.019660,-3.835937,4.076110,0.00005884,0.01145802,4846.080679
33,25.000145,3.988465,81.325736,-0.020094,-3.831206,4.076110,0.00005884,0.01145802,4846.080679
34,25.000149,3.989285,81.351844,-0.020519,-3.826481,4.076110,0.00005884,0.01145802,4846.080679
35,25.000153,3.989947,81.377921,-0.020935,-3.821762,4.076110,0.00005884,0.01145802,4846.080679
36,25.000157,3.990589,81.403965,-0.021343,-3.817049,4.076110,0.00005884,0.01145802,4846.080679
37,25.000161,3.991222,81.429978,-0.021742,-3.812343,4.076110,0.00005884,0.01145802,4846.080679
38,25.000165,3.991844,81.455958,-0.022134,-3.807642,4.076110,0.00005884,0.01145802,4846.080679
39,25.000169,3.992384,81.481906,-0.022518,-3.802946,4.076110,0.00005884,0.01145802,4846.080679
40,25.000173,3.992916,81.507822,-0.022893,-3.798257,4.076110,0.00005884,0.01145802,4846.080679
41,25.000177,3.993440,81.533707,-0.023262,-3.793574,4.076110,0.00005884,0.01145802,4846.080679
42,25.000181,3.993966,81.559559,-0.023622,-3.788897,4.076110,0.00005884,0.01145802,4846.080679
43,25.000185,3.994554,81.585380,-0.023976,-3.784225,4.076110,0.00005884,0.01145802,4846.080679
44,25.000189,3.995134,81.611168,-0.024321,-3.779559,4.076110,0.00005884,0.01145802,4846.080679
45,25.000193,3.995707,81.636925,-0.024660,-3.774899,4.076110,0.00005884,0.01145802,4846.080679
46,25.000196,3.996272,81.662650,-0.024992,-3.770244,4.076110,0.00005884,0.01145802,4846.080679
47,25.000200,3.996827,81.688344,-0.025317,-3.765595,4.076110,0.00005884,0.01145802,4846.080679
48,25.000204,3.997376,81.714005,-0.025635,-3.760952,4.076110,0.00005884,0.01145802,4846.080679
49,25.000208,3.997918,81.739635,-0.025947,-3.756315,4.076110,0.00005884,0.01145802,4846.080679
50,25.000212,3.998453,81.765234,-0.026252,-3.751683,4.076110,0.00005884,0.01145802,4846.080679
51,25.000216,3.998984,81.790801,-0.026551,-3.747057,4.076110,0.00005884,0.01145802,4846.080679
52,25.000219,3.999509,81.816336,-0.026843,-3.742437,4.076110,0.00005884,0.01145802,4846.080679
53,25.000223,4.000026,81.841840,-0.027129,-3.737822,4.076110,0.00005884,0.01145802,4846.080679
54,25.000227,4.000537,81.867312,-0.027410,-3.733213,4.076110,0.00005884,0.01145802,4846.080679
55,25.000231,4.001040,81.892753,-0.027684,-3.728610,4.076110,0.00005884,0.01145802,4846.080679
56,25.000234,4.001537,81.918163,-0.027952,-3.724013,4.076110,0.00005884,0.01145802,4846.080679
57,25.000238,4.002027,81.943541,-0.028215,-3.719421,4.076110,0.00005884,0.01145802,4846.080679
58,25.000242,4.002513,81.968888,-0.028472,-3.714835,4.076110,0.00005884,0.01145802,4846.080679
59,25.000245,4.002994,81.994204,-0.028723,-3.710254,4.076110,0.00005884,0.01145802,4846.080679
60,25.000249,4.003470,82.019489,-0.028970,-3.705680,4.076110,0.00005884,0.01145802,4846.080679
61,25.000253,4.003940,82.044742,-0.029210,-3.701111,4.076110,0.00005884,0.01145802,4846.080679
62,25.000256,4.004451,82.069964,-0.029446,-3.696549,4.076110,0.00005884,0.01145802,4846.080679
63,25.000260,4.005062,82.095155,-0.029676,-3.691991,4.076110,0.00005884,0.01145802,4846.080679
64,25.000263,4.005668,82.120315,-0.029902,-3.687438,4.076110,0.00005884,0.01145802,4846.080679
65,25.000267,4.006268,82.145445,-0.030122,-3.682890,4.076110,0.00005884,0.01145802,4846.080679
66,25.000270,4.006797,82.170543,-0.030338,-3.678347,4.076110,0.00005884,0.01145802,4846.080679
67,25.000274,4.007159,82.195610,-0.030548,-3.673812,4.076110,0.00005884,0.01145802,4846.080679
68,25.000277,4.007516,82.220646,-0.030754,-3.669282,4.076110,0.00005884,0.01145802,4846.080679
69,25.000281,4.007868,82.245651,-0.030956,-3.664757,4.076110,0.00005884,0.01145802,4846.080679
70,25.000284,4.008215,82.270626,-0.031153,-3.660238,4.076110,0.00005884,0.01145802,4846.080679
71,25.000288,4.008558,82.295569,-0.031345,-3.655725,4.076110,0.00005884,0.01145802,4846.080679
72,25.000291,4.008896,82.320482,-0.031534,-3.651218,4.076110,0.00005884,0.01145802,4846.080679
73,25.000295,4.009229,82.345365,-0.031717,-3.646716,4.076110,0.00005884,0.01145802,4846.080679
74,25.000298,4.009585,82.370216,-0.031897,-3.642221,4.076110,0.00005884,0.01145802,4846.080679
75,25.000302,4.010060,82.395037,-0.032073,-3.637730,4.076110,0.00005884,0.01145802,4846.080679
76,25.000305,4.010530,82.419827,-0.032244,-3.633244,4.076110,0.00005884,0.01145802,4846.080679
77,25.000308,4.010995,82.444587,-0.032412,-3.628764,4.076110,0.00005884,0.01145802,4846.080679
78,25.000312,4.011450,82.469316,-0.032575,-3.624289,4.076110,0.00005884,0.01145802,4846.080679
79,25.000315,4.011836,82.494015,-0.032735,-3.619820,4.076110,0.00005884,0.01145802,4846.080679
80,25.000318,4.012217,82.518683,-0.032891,-3.615357,4.076110,0.00005884,0.01145802,4846.080679
81,25.000322,4.012595,82.543321,-0.033043,-3.610899,4.076110,0.00005884,0.01145802,4846.080679
82,25.000325,4.012969,82.567929,-0.033192,-3.606446,4.076110,0.00005884,0.01145802,4846.080679
83,25.000328,4.013337,82.592506,-0.033337,-3.602000,4.076110,0.00005884,0.01145802,4846.080679
84,25.000332,4.013702,82.617053,-0.033479,-3.597558,4.076110,0.00005884,0.01145802,4846.080679
85,25.000335,4.014062,82.641569,-0.033617,-3.593122,4.076110,0.00005884,0.01145802,4846.080679
86,25.000338,4.014420,82.666056,-0.033752,-3.588692,4.076110,0.00005884,0.01145802,4846.080679
87,25.000341,4.014771,82.690512,-0.033883,-3.584267,4.076110,0.00005884,0.01145802,4846.080679
88,25.000345,4.015118,82.714938,-0.034012,-3.579847,4.076110,0.00005884,0.01145803,4846.080679
89,25.000348,4.015463,82.739333,-0.034137,-3.575433,4.076110,0.00005884,0.01145803,4846.080679
90,25.000351,4.015803,82.763699,-0.034259,-3.571024,4.076110,0.00005884,0.01145803,4846.080679
91,25.000354,4.016143,82.788035,-0.034377,-3.566621,4.076110,0.00005884,0.01145803,4846.080679
92,25.000357,4.016479,82.812341,-0.034493,-3.562223,4.076110,0.00005884,0.01145803,4846.080679
93,25.000360,4.016813,82.836616,-0.034606,-3.557831,4.076110,0.00005884,0.01145803,4846.080679
94,25.000363,4.017143,82.860862,-0.034716,-3.553443,4.076110,0.00005884,0.01145803,4846.080679
95,25.000367,4.017423,82.885078,-0.034823,-3.549062,4.076110,0.00005884,0.01145803,4846.080679
96,25.000370,4.017673,82.909264,-0.034927,-3.544685,4.076110,0.00005884,0.01145803,4846.080679
97,25.000373,4.017920,82.933420,-0.035029,-3.540315,4.076110,0.00005884,0.01145803,4846.080679
98,25.000376,4.018164,82.957547,-0.035128,-3.535950,4.076110,0.00005884,0.01145803,4846.080679
99,25.000379,4.018468,82.981644,-0.035224,-3.531591,4.076110,0.00005884,0.01145803,4846.080679
100,25.000382,4.018852,83.005711,-0.035317,-3.527237,4.076110,0.00005884,0.01145803,4846.080679
101,25.000385,4.019232,83.029748,-0.035408,-3.522888,4.076110,0.00005884,0.01145803,4846.080679
102,25.000388,4.019610,83.053756,-0.035497,-3.518543,4.076110,0.00005884,0.01145803,4846.080679
103,25.000391,4.019969,83.077734,-0.035583,-3.514204,4.076110,0.00005884,0.01145803,4846.080679
104,25.000394,4.020270,83.101682,-0.035666,-3.509871,4.076110,0.00005884,0.01145803,4846.080679
105,25.000397,4.020568,83.125601,-0.035748,-3.505543,4.076110,0.00005884,0.01145803,4846.080679
106,25.000400,4.020864,83.149491,-0.035826,-3.501221,4.076110,0.00005884,0.01145803,4846.080679
107,25.000403,4.021157,83.173351,-0.035903,-3.496903,4.076110,0.00005884,0.01145803,4846.080679
108,25.000406,4.021446,83.197181,-0.035977,-3.492592,4.076110,0.00005884,0.01145803,4846.080679
109,25.000409,4.021731,83.220983,-0.036050,-3.488285,4.076110,0.00005884,0.01145803,4846.080679
110,25.000412,4.022015,83.244755,-0.036119,-3.483984,4.076110,0.00005884,0.01145803,4846.080679
111,25.000414,4.022296,83.268497,-0.036187,-3.479689,4.076110,0.00005884,0.01145803,4846.080679
112,25.000417,4.022628,83.292210,-0.036253,-3.475399,4.076110,0.00005884,0.01145803,4846.080679
113,25.000420,4.022977,83.315894,-0.036317,-3.471113,4.076110,0.00005884,0.01145803,4846.080679
114,25.000423,4.023324,83.339549,-0.036378,-3.466833,4.076110,0.00005884,0.01145803,4846.080679
115,25.000426,4.023668,83.363175,-0.036438,-3.462558,4.076110,0.00005884,0.01145803,4846.080679
116,25.000429,4.023978,83.386772,-0.036496,-3.458288,4.076110,0.00005884,0.01145803,4846.080679
117,25.000431,4.024248,83.410339,-0.036552,-3.454024,4.076110,0.00005884,0.01145803,4846.080679
118,25.000434,4.024515,83.433877,-0.036606,-3.449764,4.076110,0.00005884,0.01145803,4846.080679
119,25.000437,4.024781,83.457387,-0.036658,-3.445511,4.076110,0.00005884,0.01145803,4846.080679
120,25.000440,4.025033,83.480867,-0.036708,-3.441262,4.076110,0.00005884,0.01145803,4846.080679
121,25.000443,4.025223,83.504319,-0.036757,-3.437018,4.076110,0.00005884,0.01145803,4846.080679
122,25.000445,4.025411,83.527741,-0.036804,-3.432780,4.076110,0.00005884,0.01145803,4846.080679
123,25.000448,4.025597,83.551135,-0.036849,-3.428548,4.076110,0.00005884,0.01145803,4846.080679
124,25.000451,4.025781,83.574500,-0.036892,-3.424322,4.076110,0.00005884,0.01145803,4846.080679
125,25.000453,4.026080,83.597836,-0.036934,-3.420100,4.076110,0.00005884,0.01145803,4846.080679
126,25.000456,4.026401,83.621143,-0.036974,-3.415883,4.076110,0.00005884,0.01145803,4846.080679
127,25.000459,4.026720,83.644421,-0.037013,-3.411671,4.076110,0.00005884,0.01145803,4846.080679
128,25.000461,4.027038,83.667671,-0.037050,-3.407465,4.076110,0.00005884,0.01145803,4846.080679
129,25.000464,4.027386,83.690892,-0.037086,-3.403264,4.076110,0.00005884,0.01145803,4846.080679
130,25.000467,4.027769,83.714085,-0.037120,-3.399068,4.076110,0.00005884,0.01145803,4846.080679
131,25.000469,4.028149,83.737248,-0.037152,-3.394876,4.076110,0.00005884,0.01145803,4846.080679
132,25.000472,4.028527,83.760384,-0.037183,-3.390690,4.076110,0.00005884,0.01145803,4846.080679
133,25.000475,4.028888,83.783491,-0.037213,-3.386507,4.076110,0.00005884,0.01145803,4846.080679
134,25.000477,4.029126,83.806569,-0.037242,-3.382331,4.076110,0.00005884,0.01145803,4846.080679
135,25.000480,4.029362,83.829619,-0.037269,-3.378161,4.076110,0.00005884,0.01145803,4846.080679
136,25.000482,4.029597,83.852640,-0.037294,-3.373995,4.076110,0.00005884,0.01145803,4846.080679
137,25.000485,4.029830,83.875633,-0.037319,-3.369835,4.076110,0.00005884,0.01145803,4846.080679
138,25.000487,4.030061,83.898598,-0.037342,-3.365680,4.076110,0.00005884,0.01145803,4846.080679
139,25.000490,4.030291,83.921534,-0.037363,-3.361530,4.076110,0.00005884,0.01145803,4846.080679
140,25.000492,4.030520,83.944442,-0.037384,-3.357385,4.076110,0.00005884,0.01145803,4846.080679
141,25.000495,4.030747,83.967322,-0.037403,-3.353245,4.076110,0.00005884,0.01145803,4846.080679
142,25.000497,4.030972,83.990174,-0.037422,-3.349110,4.076110,0.00005884,0.01145803,4846.080679
143,25.000500,4.031194,84.012997,-0.037439,-3.344981,4.076110,0.00005884,0.01145803,4846.080679
144,25.000502,4.031415,84.035792,-0.037454,-3.340856,4.076110,0.00005884,0.01145803,4846.080679
145,25.000505,4.031634,84.058560,-0.037469,-3.336737,4.076110,0.00005884,0.01145803,4846.080679
146,25.000507,4.031852,84.081299,-0.037483,-3.332622,4.076110,0.00005884,0.01145803,4846.080679
147,25.000510,4.032070,84.104010,-0.037495,-3.328513,4.076110,0.00005884,0.01145803,4846.080679
148,25.000512,4.032288,84.126693,-0.037507,-3.324409,4.076110,0.00005884,0.01145803,4846.080679
149,25.000514,4.032504,84.149348,-0.037517,-3.320310,4.076110,0.00005884,0.01145803,4846.080679
150,25.000517,4.032719,84.171975,-0.037527,-3.316216,4.076110,0.00005884,0.01145803,4846.080679
151,25.000519,4.032931,84.194574,-0.037535,-3.312127,4.076110,0.00005884,0.01145803,4846.080679
152,25.000521,4.033141,84.217146,-0.037542,-3.308043,4.076110,0.00005884,0.01145803,4846.080679
153,25.000524,4.033350,84.239689,-0.037549,-3.303964,4.076110,0.00005884,0.01145803,4846.080679
154,25.000526,4.033558,84.262205,-0.037554,-3.299890,4.076110,0.00005884,0.01145803,4846.080679
155,25.000529,4.033765,84.284693,-0.037559,-3.295821,4.076110,0.00005884,0.01145803,4846.080679
156,25.000531,4.033972,84.307153,-0.037563,-3.291757,4.076110,0.00005884,0.01145803,4846.080679
157,25.000533,4.034179,84.329586,-0.037565,-3.287698,4.076110,0.00005884,0.01145803,4846.080679
158,25.000535,4.034384,84.351991,-0.037567,-3.283644,4.076110,0.00005884,0.01145803,4846.080679
159,25.000538,4.034588,84.374368,-0.037568,-3.279596,4.076110,0.00005884,0.01145803,4846.080679
160,25.000540,4.034817,84.396718,-0.037568,-3.275553,4.076110,0.00005884,0.01145803,4846.080679
161,25.000542,4.035085,84.419040,-0.037568,-3.271514,4.076110,0.00005884,0.01145803,4846.080679
162,25.000544,4.035352,84.441335,-0.037566,-3.267480,4.076110,0.00005884,0.01145803,4846.080679
163,25.000547,4.035618,84.463602,-0.037564,-3.263451,4.076110,0.00005884,0.01145803,4846.080679
164,25.000549,4.035883,84.485842,-0.037561,-3.259426,4.076110,0.00005884,0.01145803,4846.080679
165,25.000551,4.036089,84.508054,-0.037557,-3.255407,4.076110,0.00005884,0.01145803,4846.080679
166,25.000553,4.036284,84.530239,-0.037553,-3.251393,4.076110,0.00005884,0.01145803,4846.080679
167,25.000556,4.036477,84.552396,-0.037547,-3.247384,4.076110,0.00005884,0.01145803,4846.080679
168,25.000558,4.036670,84.574526,-0.037541,-3.243380,4.076110,0.00005884,0.01145803,4846.080679
169,25.000560,4.036882,84.596629,-0.037534,-3.239381,4.076110,0.00005884,0.01145803,4846.080679
170,25.000562,4.037142,84.618705,-0.037527,-3.235387,4.076110,0.00005884,0.01145803,4846.080679
171,25.000564,4.037402,84.640753,-0.037519,-3.231398,4.076110,0.00005884,0.01145803,4846.080679
172,25.000566,4.037661,84.662775,-0.037510,-3.227413,4.076110,0.00005884,0.01145803,4846.080679
173,25.000568,4.037918,84.684769,-0.037501,-3.223433,4.076110,0.00005884,0.01145803,4846.080679
174,25.000571,4.038127,84.706736,-0.037490,-3.219458,4.076110,0.00005884,0.01145803,4846.080679
175,25.000573,4.038313,84.728676,-0.037480,-3.215488,4.076110,0.00005884,0.01145803,4846.080679
176,25.000575,4.038499,84.750588,-0.037468,-3.211523,4.076110,0.00005884,0.01145803,4846.080679
177,25.000577,4.038683,84.772474,-0.037456,-3.207563,4.076110,0.00005884,0.01145803,4846.080679
178,25.000579,4.038862,84.794333,-0.037444,-3.203607,4.076110,0.00005884,0.01145803,4846.080679
179,25.000581,4.038980,84.816165,-0.037431,-3.199657,4.076110,0.00005884,0.01145803,4846.080679
180,25.000583,4.039098,84.837970,-0.037417,-3.195712,4.076110,0.00005884,0.01145803,4846.080679
181,25.000585,4.039215,84.859748,-0.037403,-3.191772,4.076110,0.00005884,0.01145803,4846.080679
182,25.000587,4.039331,84.881499,-0.037388,-3.187837,4.076110,0.00005884,0.01145803,4846.080679
183,25.000589,4.039502,84.903224,-0.037372,-3.183907,4.076110,0.00005884,0.01145803,4846.080679
184,25.000591,4.039747,84.924921,-0.037357,-3.179981,4.076110,0.00005884,0.01145803,4846.080679
185,25.000593,4.039992,84.946592,-0.037340,-3.176060,4.076110,0.00005884,0.01145803,4846.080679
186,25.000595,4.040236,84.968236,-0.037323,-3.172143,4.076110,0.00005884,0.01145803,4846.080679
187,25.000597,4.040479,84.989854,-0.037306,-3.168231,4.076110,0.00005884,0.01145803,4846.080679
188,25.000599,4.040623,85.011444,-0.037288,-3.164324,4.076110,0.00005884,0.01145803,4846.080679
189,25.000601,4.040734,85.033009,-0.037269,-3.160422,4.076110,0.00005884,0.01145803,4846.080679
190,25.000603,4.040845,85.054546,-0.037251,-3.156525,4.076110,0.00005884,0.01145803,4846.080679
191,25.000605,4.040955,85.076057,-0.037231,-3.152633,4.076110,0.00005884,0.01145803,4846.080679
192,25.000607,4.041071,85.097542,-0.037211,-3.148748,4.076110,0.00005884,0.01145803,4846.080679
193,25.000609,4.041310,85.119000,-0.037191,-3.144865,4.076110,0.00005884,0.01145803,4846.080679
194,25.000610,4.041547,85.140431,-0.037171,-3.140988,4.076110,0.00005884,0.01145803,4846.080679
195,25.000612,4.041784,85.161836,-0.037150,-3.137114,4.076110,0.00005884,0.01145803,4846.080679
196,25.000614,4.042020,85.183215,-0.037128,-3.133246,4.076110,0.00005884,0.01145803,4846.080679
197,25.000616,4.042234,85.204567,-0.037106,-3.129382,4.076110,0.00005884,0.01145803,4846.080679
198,25.000618,4.042406,85.225894,-0.037084,-3.125523,4.076110,0.00005884,0.01145803,4846.080679
199,25.000620,4.042576,85.247193,-0.037061,-3.121669,4.076110,0.00005884,0.01145803,4846.080679
200,25.000622,4.042746,85.268467,-0.037038,-3.117820,4.076110,0.00005884,0.01145803,4846.080679
201,25.000623,4.042916,85.289714,-0.037015,-3.113976,4.076110,0.00005884,0.01145803,4846.080679
202,25.000625,4.043121,85.310935,-0.036991,-3.110137,4.076110,0.00005884,0.01145803,4846.080679
203,25.000627,4.043352,85.332130,-0.036967,-3.106302,4.076110,0.00005884,0.01145803,4846.080679
204,25.000629,4.043583,85.353299,-0.036942,-3.102472,4.076110,0.00005884,0.01145803,4846.080679
205,25.000631,4.043812,85.374441,-0.036917,-3.098647,4.076110,0.00005884,0.01145803,4846.080679
206,25.000632,4.044041,85.395558,-0.036892,-3.094826,4.076110,0.00005884,0.01145803,4846.080679
207,25.000634,4.044270,85.416648,-0.036866,-3.091010,4.076110,0.00005884,0.01145804,4846.080679
